Time,Altitude,Velocity,Temperature (F),Voltage
0.00,1,0,67.10,9.40
0.05,-1,-47,67.08,9.40
0.10,-4,-25,67.10,9.40
0.15,-7,-8,67.08,9.40
0.20,-2,13,67.10,9.40
0.25,-1,30,67.08,9.40
0.30,2,43,67.08,9.40
0.35,6,51,67.08,9.40
0.40,8,57,67.08,9.40
0.45,10,61,67.08,9.40
0.50,13,67,67.08,9.40
0.55,17,74,67.08,9.40
0.60,22,82,67.08,9.40
0.65,26,91,67.08,9.40
0.70,30,101,67.08,9.40
0.75,36,112,67.08,9.40
0.80,42,125,67.10,9.40
0.85,49,139,67.08,9.40
0.90,56,153,67.08,9.40
0.95,65,167,67.10,9.40
1.00,75,179,67.10,9.40
1.05,84,190,67.10,9.40
1.10,94,199,67.10,9.40
1.15,104,209,67.10,9.40
1.20,116,218,67.08,9.40
1.25,126,228,67.08,9.40
1.30,138,238,67.08,9.40
1.35,151,250,67.08,9.40
1.40,164,262,67.08,9.40
1.45,177,275,67.08,9.40
1.50,192,286,67.08,9.40
1.55,207,298,67.10,9.40
1.60,223,308,67.08,9.40
1.65,238,319,67.08,9.40
1.70,255,329,67.08,9.40
1.75,271,340,67.08,9.40
1.80,289,352,67.08,9.40
1.85,308,364,67.08,9.40
1.90,326,378,67.08,9.40
1.95,345,391,67.08,9.40
2.00,366,404,67.08,9.40
2.05,387,416,67.08,9.40
2.10,409,427,67.08,9.40
2.15,430,436,67.08,9.40
2.20,453,445,67.08,9.40
2.25,475,454,67.08,9.40
2.30,499,463,67.08,9.40
2.35,521,474,67.08,9.40
2.40,546,485,67.08,9.40
2.45,571,497,67.08,9.40
2.50,596,508,67.08,9.40
2.55,624,519,67.08,9.40
2.60,649,529,67.08,9.40
2.65,675,539,67.08,9.40
2.70,703,548,67.08,9.40
2.75,731,558,67.08,9.40
2.80,761,567,67.08,9.40
2.85,788,576,67.10,9.40
2.90,818,585,67.10,9.40
2.95,847,593,67.10,9.40
3.00,877,603,67.12,9.40
3.05,908,613,67.12,9.40
3.10,940,624,67.12,9.40
3.15,970,635,67.12,9.40
3.20,1003,646,67.12,9.40
3.25,1036,659,67.12,9.40
3.30,1070,676,67.12,9.40
3.35,1103,697,67.12,9.40
3.40,1137,721,67.12,9.40
3.45,1174,742,67.12,9.40
3.50,1217,756,67.12,9.40
3.55,1259,759,67.12,9.40
3.60,1298,750,67.12,9.40
3.65,1331,734,67.10,9.40
3.70,1360,712,67.10,9.40
3.75,1406,690,67.10,9.40
3.80,1437,669,67.10,9.40
3.85,1468,651,67.10,9.40
3.90,1495,635,67.10,9.40
3.95,1527,625,67.10,9.40
4.00,1561,616,67.10,9.40
4.05,1590,605,67.10,9.40
4.10,1622,591,67.10,9.40
4.15,1650,577,67.10,9.40
4.20,1679,566,67.10,9.40
4.25,1703,561,67.10,9.40
4.30,1725,566,67.10,9.40
4.35,1757,573,67.12,9.40
4.40,1795,581,67.12,9.40
4.45,1821,586,67.12,9.40
4.50,1847,583,67.14,9.40
4.55,1877,576,67.14,9.40
4.60,1907,567,67.14,9.40
4.65,1936,556,67.12,9.40
4.70,1963,548,67.14,9.40
4.75,1987,543,67.14,9.40
4.80,2013,543,67.14,9.40
4.85,2041,547,67.12,9.40
4.90,2068,554,67.12,9.40
4.95,2098,558,67.12,9.40
5.00,2128,558,67.12,9.40
5.05,2155,553,67.12,9.40
5.10,2182,545,67.12,9.40
5.15,2208,535,67.12,9.40
5.20,2235,529,67.12,9.40
5.25,2260,525,67.12,9.40
5.30,2285,526,67.12,9.40
5.35,2312,529,67.10,9.40
5.40,2339,531,67.10,9.40
5.45,2367,530,67.10,9.40
5.50,2393,526,67.12,9.40
5.55,2420,519,67.10,9.40
5.60,2446,510,67.10,9.40
5.65,2469,503,67.10,9.40
5.70,2493,500,67.12,9.40
5.75,2518,500,67.10,9.40
5.80,2543,503,67.10,9.40
5.85,2568,505,67.12,9.40
5.90,2596,504,67.12,9.40
5.95,2622,498,67.12,9.40
6.00,2645,489,67.12,9.40
6.05,2668,478,67.12,9.40
6.10,2692,469,67.14,9.40
6.15,2716,463,67.14,9.40
6.20,2736,461,67.14,9.40
6.25,2759,463,67.14,9.40
6.30,2783,468,67.14,9.40
6.35,2807,474,67.14,9.40
6.40,2831,477,67.14,9.40
6.45,2857,480,67.14,9.40
6.50,2878,480,67.14,9.40
6.55,2904,478,67.14,9.40
6.60,2928,475,67.14,9.40
6.65,2951,472,67.14,9.40
6.70,2974,469,67.14,9.40
6.75,2997,467,67.12,9.40
6.80,3021,464,67.12,9.40
6.85,3045,459,67.12,9.40
6.90,3067,454,67.12,9.40
6.95,3090,447,67.12,9.40
7.00,3111,442,67.12,9.40
7.05,3132,437,67.12,9.40
7.10,3155,434,67.12,9.40
7.15,3175,433,67.14,9.40
7.20,3199,431,67.12,9.40
7.25,3219,430,67.12,9.40
7.30,3240,429,67.12,9.40
7.35,3261,427,67.12,9.40
7.40,3284,426,67.12,9.40
7.45,3305,424,67.12,9.40
7.50,3325,423,67.12,9.40
7.55,3346,421,67.14,9.40
7.60,3368,418,67.12,9.40
7.65,3389,415,67.12,9.40
7.70,3409,411,67.14,9.40
7.75,3429,407,67.14,9.40
7.80,3450,404,67.14,9.40
7.85,3469,401,67.14,9.40
7.90,3489,400,67.14,9.40
7.95,3509,399,67.14,9.40
8.00,3529,399,67.14,9.40
8.05,3549,399,67.14,9.40
8.10,3569,398,67.15,9.40
8.15,3589,396,67.15,9.40
8.20,3609,393,67.15,9.40
8.25,3628,390,67.15,9.40
8.30,3647,388,67.14,9.40
8.35,3667,386,67.14,9.40
8.40,3686,385,67.15,9.40
8.45,3704,384,67.15,9.40
8.50,3725,381,67.14,9.40
8.55,3744,378,67.14,9.40
8.60,3762,375,67.14,9.40
8.65,3780,371,67.14,9.40
8.70,3799,369,67.14,9.40
8.75,3817,369,67.14,9.40
8.80,3835,368,67.14,9.40
8.85,3853,367,67.14,9.40
8.90,3874,365,67.14,9.40
8.95,3891,360,67.14,9.40
9.00,3909,356,67.12,9.40
9.05,3925,351,67.14,9.40
9.10,3943,347,67.12,9.40
9.15,3960,344,67.12,9.40
9.20,3977,343,67.14,9.40
9.25,3995,341,67.14,9.40
9.30,4011,340,67.14,9.40
9.35,4029,339,67.14,9.40
9.40,4044,338,67.14,9.40
9.45,4062,337,67.12,9.40
9.50,4079,335,67.12,9.40
9.55,4096,334,67.14,9.40
9.60,4112,331,67.14,9.40
9.65,4129,328,67.14,9.40
9.70,4144,326,67.14,9.40
9.75,4161,323,67.14,9.40
9.80,4177,322,67.14,9.40
9.85,4193,320,67.14,9.40
9.90,4209,318,67.14,9.40
9.95,4225,316,67.14,9.40
10.00,4240,313,67.15,9.40
10.05,4256,311,67.15,9.40
10.10,4271,310,67.15,9.40
10.15,4287,308,67.15,9.40
10.20,4302,307,67.15,9.40
10.25,4317,305,67.15,9.40
10.30,4333,303,67.15,9.40
10.35,4348,302,67.15,9.40
10.40,4362,300,67.15,9.40
10.45,4378,298,67.15,9.40
10.50,4392,296,67.15,9.40
10.55,4407,295,67.15,9.40
10.60,4422,293,67.15,9.40
10.65,4436,291,67.15,9.40
10.70,4451,289,67.15,9.40
10.75,4465,287,67.15,9.40
10.80,4479,286,67.15,9.40
10.85,4493,285,67.15,9.40
10.90,4508,285,67.15,9.40
10.95,4522,283,67.15,9.40
11.00,4537,281,67.14,9.40
11.05,4550,279,67.15,9.40
11.10,4563,277,67.14,9.40
11.15,4578,275,67.15,9.40
11.20,4591,274,67.14,9.40
11.25,4605,272,67.14,9.40
11.30,4619,270,67.14,9.40
11.35,4632,267,67.15,9.40
11.40,4645,264,67.14,9.40
11.45,4658,261,67.15,9.40
11.50,4671,258,67.15,9.40
11.55,4684,256,67.14,9.40
11.60,4696,255,67.14,9.40
11.65,4709,254,67.14,9.40
11.70,4722,253,67.14,9.40
11.75,4734,252,67.14,9.40
11.80,4747,250,67.15,9.40
11.85,4760,248,67.14,9.40
11.90,4772,244,67.14,9.40
11.95,4784,240,67.14,9.40
12.00,4795,238,67.14,9.40
12.05,4807,236,67.15,9.40
12.10,4819,236,67.14,9.40
12.15,4830,236,67.15,9.40
12.20,4843,236,67.15,9.40
12.25,4855,235,67.14,9.40
12.30,4865,234,67.15,9.40
12.35,4878,231,67.15,9.40
12.40,4890,228,67.15,9.40
12.45,4900,225,67.15,9.40
12.50,4912,222,67.15,9.40
12.55,4922,219,67.15,9.40
12.60,4933,217,67.15,9.40
12.65,4944,214,67.15,9.40
12.70,4955,213,67.15,9.40
12.75,4964,212,67.17,9.40
12.80,4976,211,67.15,9.40
12.85,4986,210,67.17,9.40
12.90,4997,209,67.17,9.40
12.95,5007,207,67.17,9.40
13.00,5017,205,67.17,9.40
13.05,5027,204,67.17,9.40
13.10,5038,202,67.17,9.40
13.15,5048,201,67.17,9.40
13.20,5057,199,67.17,9.40
13.25,5067,198,67.17,9.40
13.30,5078,196,67.17,9.40
13.35,5087,195,67.17,9.40
13.40,5096,193,67.17,9.40
13.45,5106,192,67.17,9.40
13.50,5116,192,67.17,9.40
13.55,5125,190,67.17,9.40
13.60,5135,188,67.17,9.40
13.65,5144,186,67.17,9.40
13.70,5154,184,67.17,9.40
13.75,5162,181,67.17,9.40
13.80,5171,179,67.17,9.40
13.85,5180,178,67.17,9.40
13.90,5189,176,67.17,9.40
13.95,5198,175,67.17,9.40
14.00,5206,174,67.17,9.40
14.05,5215,173,67.17,9.40
14.10,5224,172,67.17,9.40
14.15,5232,170,67.17,9.40
14.20,5241,169,67.17,9.40
14.25,5248,167,67.17,9.40
14.30,5258,165,67.17,9.40
14.35,5266,163,67.17,9.40
14.40,5273,160,67.17,9.40
14.45,5281,158,67.17,9.40
14.50,5289,156,67.17,9.40
14.55,5297,155,67.15,9.40
14.60,5305,153,67.15,9.40
14.65,5312,150,67.15,9.40
14.70,5319,148,67.15,9.40
14.75,5327,146,67.17,9.40
14.80,5334,143,67.17,9.40
14.85,5341,141,67.17,9.40
14.90,5348,138,67.17,9.40
14.95,5355,136,67.17,9.40
15.00,5361,135,67.15,9.40
15.05,5368,134,67.15,9.40
15.10,5374,134,67.15,9.40
15.15,5381,134,67.17,9.40
15.20,5389,133,67.15,9.40
15.25,5395,131,67.17,9.40
15.30,5401,130,67.17,9.40
15.35,5407,128,67.15,9.40
15.40,5414,126,67.17,9.40
15.45,5420,125,67.17,9.40
15.50,5426,124,67.15,9.40
15.55,5433,123,67.17,9.40
15.60,5439,120,67.17,9.40
15.65,5444,118,67.17,9.40
15.70,5450,115,67.15,9.40
15.75,5456,112,67.17,9.40
15.80,5462,110,67.15,9.40
15.85,5466,107,67.17,9.40
15.90,5472,105,67.17,9.40
15.95,5477,103,67.17,9.40
16.00,5482,102,67.17,9.40
16.05,5487,100,67.17,9.40
16.10,5492,100,67.17,9.40
16.15,5497,99,67.17,9.40
16.20,5501,97,67.17,9.40
16.25,5508,95,67.17,9.40
16.30,5511,93,67.17,9.40
16.35,5516,91,67.17,9.40
16.40,5520,90,67.17,9.40
16.45,5524,89,67.17,9.40
16.50,5529,88,67.17,9.40
16.55,5534,87,67.17,9.40
16.60,5538,86,67.19,9.40
16.65,5542,84,67.17,9.40
16.70,5546,82,67.17,9.40
16.75,5550,81,67.19,9.40
16.80,5554,78,67.19,9.40
16.85,5559,77,67.17,9.40
16.90,5561,75,67.17,9.40
16.95,5565,74,67.17,9.40
17.00,5569,72,67.19,9.40
17.05,5573,71,67.19,9.40
17.10,5576,70,67.17,9.40
17.15,5579,69,67.17,9.40
17.20,5583,67,67.19,9.40
17.25,5586,65,67.17,9.40
17.30,5590,63,67.19,9.40
17.35,5593,61,67.19,9.40
17.40,5594,59,67.19,9.40
17.45,5598,58,67.19,9.40
17.50,5601,58,67.19,9.40
17.55,5604,58,67.19,9.40
17.60,5607,57,67.19,9.40
17.65,5610,56,67.19,9.40
17.70,5612,54,67.17,9.40
17.75,5615,52,67.19,9.40
17.80,5618,50,67.17,9.40
17.85,5620,48,67.19,9.40
17.90,5622,46,67.19,9.40
17.95,5624,43,67.17,9.40
18.00,5627,41,67.17,9.40
18.05,5629,40,67.19,9.40
18.10,5629,38,67.19,9.40
18.15,5632,37,67.17,9.40
18.20,5634,36,67.19,9.40
18.25,5636,34,67.19,9.40
18.30,5638,32,67.19,9.40
18.35,5639,30,67.19,9.40
18.40,5639,28,67.19,9.40
18.45,5642,27,67.19,9.40
18.50,5642,27,67.17,9.40
18.55,5645,27,67.17,9.40
18.60,5645,26,67.17,9.40
18.65,5647,24,67.19,9.40
18.70,5648,22,67.17,9.40
18.75,5649,19,67.17,9.40
18.80,5650,-1,67.19,9.40
18.85,5650,-37,67.17,9.40
18.90,5651,-68,67.17,9.40
18.95,5651,-91,67.17,9.40
19.00,5651,-75,67.17,9.40
19.05,5585,0,67.17,9.40
19.10,5047,114,67.15,9.40
19.15,5674,267,67.15,9.40
19.20,5678,447,67.15,9.40
19.25,5677,600,67.15,9.40
19.30,5685,701,67.17,9.40
19.35,5783,723,67.15,9.40
19.40,5881,631,67.17,9.40
19.45,5905,438,67.15,9.40
19.50,5831,175,67.15,9.40
19.55,5853,-108,67.15,9.40
19.60,5743,-327,67.15,9.40
19.65,5709,-393,67.15,9.40
19.70,5706,-305,67.17,9.40
19.75,5692,-113,67.21,9.40
19.80,5710,88,67.21,9.40
19.85,5822,178,67.23,9.40
19.90,5910,95,67.21,9.40
19.95,5880,-102,67.19,9.40
20.00,5751,-328,67.19,9.40
20.05,5711,-486,67.19,9.30
20.10,5695,-503,67.21,9.30
20.15,5700,-414,67.23,9.30
20.20,5686,-291,67.24,9.40
20.25,5672,-180,67.26,9.40
20.30,5667,-111,67.26,9.40
20.35,5668,-79,67.24,9.40
20.40,5674,-62,67.23,9.40
20.45,5664,-55,67.21,9.40
20.50,5664,-55,67.21,9.40
20.55,5659,-58,67.21,9.40
20.60,5657,-54,67.21,9.40
20.65,5650,-44,67.21,9.40
20.70,5650,-29,67.21,9.40
20.75,5649,-14,67.21,9.40
20.80,5652,-10,67.21,9.40
20.85,5656,-16,67.23,9.40
20.90,5656,-29,67.26,9.40
20.95,5650,-44,67.26,9.40
21.00,5643,-53,67.26,9.40
21.05,5638,-55,67.28,9.40
21.10,5630,-53,67.28,9.40
21.15,5631,-49,67.28,9.40
21.20,5630,-46,67.28,9.40
21.25,5624,-44,67.28,9.40
21.30,5624,-43,67.26,9.40
21.35,5625,-43,67.26,9.40
21.40,5622,-43,67.26,9.40
21.45,5621,-43,67.24,9.40
21.50,5617,-43,67.24,9.40
21.55,5618,-43,67.23,9.40
21.60,5616,-43,67.23,9.40
21.65,5615,-43,67.24,9.40
21.70,5613,-44,67.26,9.40
21.75,5613,-46,67.26,9.40
21.80,5616,-48,67.28,9.40
21.85,5619,-50,67.26,9.40
21.90,5617,-50,67.24,9.40
21.95,5615,-49,67.23,9.40
22.00,5609,-48,67.23,9.40
22.05,5601,-46,67.21,9.40
22.10,5601,-45,67.26,9.40
22.15,5595,-45,67.28,9.40
22.20,5591,-46,67.28,9.40
22.25,5589,-46,67.28,9.40
22.30,5585,-46,67.28,9.40
22.35,5585,-46,67.26,9.40
22.40,5583,-46,67.26,9.40
22.45,5579,-47,67.26,9.40
22.50,5575,-47,67.26,9.40
22.55,5572,-48,67.26,9.40
22.60,5569,-48,67.26,9.40
22.65,5564,-49,67.26,9.40
22.70,5563,-50,67.26,9.40
22.75,5559,-53,67.26,9.40
22.80,5554,-56,67.26,9.40
22.85,5552,-61,67.28,9.40
22.90,5552,-64,67.28,9.40
22.95,5551,-65,67.30,9.40
23.00,5550,-63,67.30,9.40
23.05,5546,-59,67.30,9.40
23.10,5545,-54,67.28,9.40
23.15,5538,-50,67.26,9.40
23.20,5531,-48,67.26,9.40
23.25,5534,-49,67.28,9.40
23.30,5535,-51,67.28,9.40
23.35,5535,-53,67.28,9.40
23.40,5529,-56,67.28,9.40
23.45,5527,-57,67.28,9.40
23.50,5520,-57,67.30,9.40
23.55,5523,-56,67.30,9.40
23.60,5521,-53,67.30,9.40
23.65,5518,-51,67.28,9.40
23.70,5517,-50,67.24,9.40
23.75,5509,-50,67.23,9.40
23.80,5498,-51,67.23,9.40
23.85,5486,-53,67.23,9.40
23.90,5479,-55,67.26,9.40
23.95,5477,-56,67.28,9.40
24.00,5482,-57,67.28,9.40
24.05,5489,-57,67.28,9.40
24.10,5516,-56,67.26,9.40
24.15,5516,-56,67.26,9.40
24.20,5489,-56,67.28,9.40
24.25,5480,-59,67.32,9.40
24.30,5481,-61,67.32,9.40
24.35,5481,-64,67.32,9.40
24.40,5465,-66,67.30,9.40
24.45,5453,-66,67.30,9.40
24.50,5451,-66,67.32,9.40
24.55,5483,-65,67.33,9.40
24.60,5463,-64,67.33,9.40
24.65,5464,-63,67.33,9.40
24.70,5465,-62,67.33,9.40
24.75,5459,-60,67.33,9.40
24.80,5451,-57,67.32,9.40
24.85,5443,-53,67.32,9.40
24.90,5440,-51,67.32,9.40
24.95,5434,-51,67.30,9.40
25.00,5431,-54,67.32,9.40
25.05,5433,-60,67.32,9.40
25.10,5435,-67,67.32,9.40
25.15,5430,-71,67.33,9.40
25.20,5421,-73,67.32,9.40
25.25,5414,-72,67.30,9.40
25.30,5406,-70,67.30,9.40
25.35,5396,-67,67.28,9.40
25.40,5392,-66,67.28,9.40
25.45,5393,-66,67.28,9.40
25.50,5398,-68,67.26,9.40
25.55,5396,-71,67.26,9.40
25.60,5395,-74,67.26,9.40
25.65,5392,-77,67.26,9.40
25.70,5387,-78,67.28,9.40
25.75,5387,-78,67.28,9.40
25.80,5383,-77,67.30,9.40
25.85,5386,-75,67.30,9.40
25.90,5383,-73,67.32,9.40
25.95,5400,-71,67.32,9.40
26.00,5381,-72,67.32,9.40
26.05,5367,-73,67.30,9.40
26.10,5355,-75,67.28,9.40
26.15,5347,-76,67.28,9.40
26.20,5345,-74,67.32,9.40
26.25,5341,-71,67.33,9.40
26.30,5345,-67,67.33,9.40
26.35,5343,-64,67.33,9.40
26.40,5334,-63,67.33,9.40
26.45,5331,-64,67.35,9.40
26.50,5325,-67,67.35,9.40
26.55,5322,-69,67.35,9.40
26.60,5317,-69,67.35,9.40
26.65,5306,-68,67.35,9.40
26.70,5299,-66,67.33,9.40
26.75,5303,-66,67.35,9.40
26.80,5293,-67,67.35,9.40
26.85,5298,-69,67.35,9.40
26.90,5303,-72,67.35,9.40
26.95,5302,-74,67.37,9.40
27.00,5291,-74,67.35,9.40
27.05,5283,-74,67.35,9.40
27.10,5272,-73,67.33,9.40
27.15,5270,-72,67.32,9.40
27.20,5273,-72,67.30,9.40
27.25,5278,-72,67.28,9.40
27.30,5280,-72,67.30,9.40
27.35,5276,-72,67.28,9.40
27.40,5286,-70,67.28,9.40
27.45,5253,-68,67.28,9.40
27.50,5244,-66,67.33,9.40
27.55,5259,-64,67.35,9.40
27.60,5268,-62,67.35,9.40
27.65,5266,-59,67.37,9.40
27.70,5254,-58,67.37,9.40
27.75,5256,-58,67.35,9.40
27.80,5254,-59,67.35,9.40
27.85,5251,-61,67.35,9.40
27.90,5241,-62,67.33,9.40
27.95,5233,-62,67.33,9.40
28.00,5220,-60,67.33,9.40
28.05,5218,-58,67.35,9.40
28.10,5213,-56,67.35,9.40
28.15,5200,-56,67.37,9.40
28.20,5201,-56,67.37,9.40
28.25,5200,-57,67.37,9.40
28.30,5199,-59,67.37,9.40
28.35,5198,-62,67.35,9.40
28.40,5197,-66,67.35,9.40
28.45,5196,-69,67.33,9.40
28.50,5197,-72,67.32,9.40
28.55,5197,-75,67.30,9.40
28.60,5192,-76,67.30,9.40
28.65,5190,-76,67.28,9.40
28.70,5189,-74,67.30,9.40
28.75,5188,-72,67.33,9.40
28.80,5179,-71,67.33,9.40
28.85,5175,-69,67.35,9.40
28.90,5173,-68,67.35,9.40
28.95,5172,-68,67.37,9.40
29.00,5171,-68,67.37,9.40
29.05,5170,-68,67.37,9.40
29.10,5165,-68,67.37,9.40
29.15,5164,-68,67.37,9.40
29.20,5165,-69,67.37,9.40
29.25,5170,-69,67.37,9.40
29.30,5166,-69,67.37,9.40
29.35,5146,-70,67.37,9.40
29.40,5120,-71,67.37,9.40
29.45,5108,-72,67.35,9.40
29.50,5107,-73,67.37,9.40
29.55,5111,-74,67.33,9.40
29.60,5111,-75,67.35,9.40
29.65,5113,-76,67.35,9.40
29.70,5118,-77,67.35,9.40
29.75,5118,-78,67.37,9.40
29.80,5113,-79,67.35,9.40
29.85,5107,-79,67.35,9.40
29.90,5103,-80,67.35,9.40
29.95,5094,-80,67.35,9.40
30.00,5084,-79,67.37,9.40
30.05,5074,-78,67.37,9.40
30.10,5069,-75,67.37,9.40
30.15,5070,-73,67.37,9.40
30.20,5066,-71,67.37,9.40
30.25,5064,-68,67.39,9.40
30.30,5061,-65,67.39,9.40
30.35,5061,-61,67.39,9.40
30.40,5057,-57,67.39,9.40
30.45,5053,-54,67.39,9.40
30.50,5052,-53,67.39,9.40
30.55,5045,-54,67.39,9.40
30.60,5041,-57,67.39,9.40
30.65,5038,-59,67.39,9.40
30.70,5033,-62,67.39,9.40
30.75,5027,-64,67.39,9.40
30.80,5021,-65,67.39,9.40
30.85,5016,-65,67.37,9.40
30.90,5014,-63,67.37,9.40
30.95,5012,-60,67.37,9.40
31.00,5013,-57,67.37,9.40
31.05,5019,-55,67.35,9.40
31.10,5025,-55,67.35,9.40
31.15,5033,-57,67.33,9.40
31.20,5032,-60,67.33,9.40
31.25,5028,-63,67.33,9.40
31.30,5023,-64,67.33,9.40
31.35,5020,-65,67.33,9.40
31.40,5011,-64,67.33,9.40
31.45,5006,-62,67.33,9.40
31.50,5005,-61,67.33,9.40
31.55,5002,-59,67.33,9.40
31.60,5000,-58,67.33,9.40
31.65,4995,-57,67.35,9.40
31.70,4991,-57,67.35,9.40
31.75,4981,-56,67.35,9.40
31.80,4975,-55,67.37,9.40
31.85,4976,-54,67.39,9.40
31.90,4975,-53,67.39,9.40
31.95,4967,-53,67.39,9.40
32.00,4983,-54,67.39,9.40
32.05,4972,-56,67.39,9.40
32.10,4956,-59,67.39,9.40
32.15,4949,-60,67.37,9.40
32.20,4938,-62,67.35,9.40
32.25,4931,-61,67.35,9.40
32.30,4933,-60,67.39,9.40
32.35,4931,-59,67.42,9.40
32.40,4929,-56,67.42,9.40
32.45,4936,-54,67.42,9.40
32.50,4930,-53,67.42,9.40
32.55,4930,-51,67.42,9.40
32.60,4927,-50,67.41,9.40
32.65,4922,-49,67.41,9.40
32.70,4917,-48,67.39,9.40
32.75,4913,-45,67.41,9.40
32.80,4913,-43,67.41,9.40
32.85,4913,-41,67.39,9.40
32.90,4910,-40,67.33,9.40
32.95,4911,-39,67.35,9.40
33.00,4910,-38,67.35,9.40
33.05,4911,-35,67.33,9.40
33.10,4910,-32,67.37,9.40
33.15,4909,-28,67.39,9.40
33.20,4906,-25,67.41,9.40
33.25,4904,-23,67.42,9.40
33.30,4902,-23,67.39,9.40
33.35,4903,-23,67.33,9.40
33.40,4904,-24,67.35,9.40
33.45,4903,-25,67.37,9.40
33.50,4902,-24,67.39,9.40
33.55,4901,-23,67.39,9.40
33.60,4898,-21,67.42,9.40
33.65,4895,-19,67.42,9.40
33.70,4893,-18,67.42,9.40
33.75,4892,-17,67.42,9.40
33.80,4896,-17,67.41,9.40
33.85,4898,-17,67.41,9.40
33.90,4898,-18,67.39,9.40
33.95,4899,-19,67.39,9.40
34.00,4898,-20,67.39,9.40
34.05,4898,-20,67.41,9.40
34.10,4894,-20,67.41,9.40
34.15,4892,-20,67.41,9.40
34.20,4896,-19,67.42,9.40
34.25,4888,-18,67.42,9.40
34.30,4886,-18,67.44,9.40
34.35,4881,-18,67.42,9.40
34.40,4882,-17,67.41,9.40
34.45,4884,-17,67.37,9.40
34.50,4883,-16,67.35,9.40
34.55,4885,-16,67.35,9.40
34.60,4886,-15,67.35,9.40
34.65,4884,-14,67.37,9.40
34.70,4884,-14,67.39,9.40
34.75,4882,-14,67.39,9.40
34.80,4878,-15,67.41,9.40
34.85,4875,-16,67.42,9.40
34.90,4873,-17,67.42,9.40
34.95,4871,-18,67.44,9.40
35.00,4871,-19,67.44,9.40
35.05,4870,-19,67.44,9.40
35.10,4870,-20,67.44,9.40
35.15,4868,-20,67.42,9.40
35.20,4869,-20,67.42,9.40
35.25,4868,-19,67.41,9.40
35.30,4869,-19,67.39,9.40
35.35,4869,-18,67.37,9.40
35.40,4869,-18,67.39,9.40
35.45,4869,-19,67.37,9.40
35.50,4870,-20,67.37,9.40
35.55,4870,-21,67.37,9.40
35.60,4869,-21,67.37,9.40
35.65,4869,-21,67.37,9.40
35.70,4869,-21,67.39,9.40
35.75,4866,-20,67.39,9.40
35.80,4865,-19,67.39,9.40
35.85,4863,-19,67.41,9.40
35.90,4863,-18,67.41,9.40
35.95,4861,-17,67.42,9.40
36.00,4859,-17,67.42,9.40
36.05,4856,-17,67.44,9.40
36.10,4854,-17,67.44,9.40
36.15,4853,-17,67.44,9.40
36.20,4852,-17,67.44,9.40
36.25,4849,-17,67.44,9.40
36.30,4849,-18,67.46,9.40
36.35,4847,-18,67.46,9.40
36.40,4846,-18,67.44,9.40
36.45,4846,-19,67.44,9.40
36.50,4844,-19,67.44,9.40
36.55,4843,-20,67.44,9.40
36.60,4842,-20,67.42,9.40
36.65,4841,-20,67.42,9.40
36.70,4841,-20,67.42,9.40
36.75,4840,-19,67.42,9.40
36.80,4840,-19,67.41,9.40
36.85,4839,-19,67.41,9.40
36.90,4839,-19,67.39,9.40
36.95,4838,-18,67.39,9.40
37.00,4837,-18,67.39,9.40
37.05,4837,-17,67.39,9.40
37.10,4836,-16,67.39,9.40
37.15,4836,-16,67.39,9.40
37.20,4834,-16,67.39,9.40
37.25,4834,-15,67.39,9.40
37.30,4834,-15,67.39,9.40
37.35,4833,-15,67.39,9.40
37.40,4833,-15,67.39,9.40
37.45,4831,-14,67.39,9.40
37.50,4832,-14,67.39,9.40
37.55,4831,-14,67.39,9.40
37.60,4829,-14,67.39,9.40
37.65,4829,-14,67.39,9.40
37.70,4829,-15,67.39,9.40
37.75,4828,-15,67.39,9.40
37.80,4826,-15,67.39,9.40
37.85,4826,-15,67.39,9.40
37.90,4824,-15,67.41,9.40
37.95,4823,-15,67.39,9.40
38.00,4824,-15,67.41,9.40
38.05,4823,-16,67.41,9.40
38.10,4822,-16,67.41,9.40
38.15,4822,-16,67.39,9.40
38.20,4819,-16,67.41,9.40
38.25,4819,-16,67.41,9.40
38.30,4819,-17,67.41,9.40
38.35,4818,-17,67.41,9.40
38.40,4817,-17,67.41,9.40
38.45,4816,-18,67.42,9.40
38.50,4816,-18,67.41,9.40
38.55,4815,-18,67.41,9.40
38.60,4813,-18,67.42,9.40
38.65,4813,-18,67.42,9.40
38.70,4811,-18,67.42,9.40
38.75,4810,-18,67.42,9.40
38.80,4810,-18,67.42,9.40
38.85,4810,-18,67.42,9.40
38.90,4808,-18,67.42,9.40
38.95,4808,-18,67.42,9.40
